wavelength	n	k
350.397168	1.477981670102148	0
351.986475	1.4776185602173177	0
353.575781	1.4772333676495326	0
355.165088	1.4768264198276402	0
356.75437	1.476398051806037	0
358.343628	1.4759485921970208	0
359.932886	1.4754783625761123	0
361.522144	1.4751238759430498	0
363.111377	1.4751258361975905	0
364.70061	1.475108190905444	0
366.289819	1.4750714110101915	0
367.879028	1.4750159666169238	0
369.468213	1.4749423291974493	0
371.057397	1.4748509683205788	0
372.646582	1.4747423540744964	0
374.235718	1.4746169608349022	0
375.824878	1.4744752534154097	0
377.414014	1.4743177062620743	0
379.003125	1.474144790355464	0
380.592236	1.4739569734781783	0
382.181323	1.4737547289290522	0
383.77041	1.4735385240992929	0
385.359473	1.4733088326739154	0
386.948535	1.4730661217436753	0
388.537573	1.472810865210125	0
390.126587	1.4725435337041637	0
391.715601	1.4722645935157526	0
393.30459	1.4719745193455067	0
394.893579	1.4716737769243926	0
396.482544	1.471362841052944	0
398.071484	1.4710421823955322	0
399.660425	1.4707122659145595	0
401.249341	1.4703735671914329	0
402.838232	1.4700265565945179	0
404.4271	1.4696717039963942	0
406.015967	1.4695456252743349	0
407.60481	1.4694611934112947	0
409.193652	1.4693693774878787	0
410.782471	1.469270130800073	0
412.37124	1.4691634074073687	0
413.96001	1.469049156092092	0
415.548779	1.4689273288607516	0
417.1375	1.468797881533165	0
418.726221	1.4686607624104346	0
420.314893	1.468515927946363	0
421.903564	1.4683633260004538	0
423.492236	1.4682029082521468	0
425.080859	1.4680346319787112	0
426.669482	1.4678584442290779	0
428.258057	1.4676743025639405	0
429.846582	1.467482159834269	0
431.435156	1.4672819559545707	0
433.023633	1.4670736615762494	0
434.612158	1.4668572099462154	0
436.200586	1.4666795394467478	0
437.789063	1.466632923417037	0
439.377441	1.4665781550729473	0
440.965869	1.4665152924941647	0
442.554199	1.4664444047378198	0
444.142529	1.4663655510038163	0
445.730859	1.4662787941214603	0
447.319141	1.466184199896658	0
448.907373	1.4660818319947417	0
450.495605	1.4659717503785776	0
452.083789	1.465854021538966	0
453.671973	1.4657287050772139	0
455.260107	1.4655958681052657	0
456.848193	1.4654555739555273	0
458.436279	1.4653078815268576	0
460.024316	1.4651528585154772	0
461.612305	1.4649905682875293	0
463.200293	1.4648210691656671	0
464.788232	1.4646444293989935	0
466.376172	1.46446070653323	0
467.964014	1.4642881537772778	0
469.551855	1.4642664649037713	0
471.139697	1.4642379412208635	0
472.727441	1.4642027013676513	0
474.315186	1.4641608599910336	0
475.902881	1.4641125349601274	0
477.490527	1.464057843060971	0
479.078174	1.4639968990658065	0
480.665771	1.4639298214197907	0
482.25332	1.4638567267950708	0
483.84082	1.4637777319671563	0
485.428271	1.4636929536496923	0
487.015723	1.4636025055978825	0
488.603125	1.4635065071352598	0
490.19043	1.4634050780146888	0
491.777734	1.4632983287371204	0
493.36499	1.4631863788327821	0
494.952246	1.4630693412723492	0
496.539404	1.4629473398588713	0
498.126514	1.4628204875282242	0
499.713623	1.462688896836587	0
501.300684	1.462552687980514	0
502.887646	1.462411982043244	0
504.474609	1.4622668866327027	0
506.061523	1.462117522567541	0
507.64834	1.461964010987387	0
509.235156	1.4618542933122107	0
510.821924	1.4618123177592042	0
512.408643	1.4617665177944643	0
513.995264	1.4617169987381744	0
515.581885	1.4616638612443524	0
517.168457	1.4616072104815039	0
518.754932	1.461547151994278	0
520.341406	1.4614837858036474	0
521.927783	1.4614172193758703	0
523.51416	1.461347552254676	0
525.100439	1.4612748923374301	0
526.68667	1.4611993410428847	0
528.272852	1.461121001968748	0
529.858984	1.4610399787006128	0
531.445068	1.4609563746507956	0
533.031055	1.4608702960065882	0
534.616992	1.4607818437997884	0
536.202881	1.4606911213665095	0
537.788721	1.4605982321903583	0
539.374512	1.4605032796807642	0
540.960254	1.460406367228017	0
542.545898	1.4603076012830274	0
544.131494	1.4602070821594766	0
545.716992	1.4601049164245021	0
547.30249	1.460041731845159	0
548.887891	1.4599899564311656	0
550.473242	1.4599367033819466	0
552.058496	1.4598820001714767	0
553.643701	1.4598258710306133	0
555.228857	1.4597683417755372	0
556.813965	1.4597094381800702	0
558.398975	1.45964918796998	0
559.983936	1.4595876151450733	0
561.568799	1.4595247474636495	0
563.153613	1.4594606088301132	0
564.73833	1.4593952270263235	0
566.322998	1.4593286259045901	0
567.907617	1.4592608312359094	0
569.492139	1.459191870892992	0
571.076611	1.459121768643968	0
572.660986	1.4590505523742454	0
574.245313	1.458978245678595	0
575.829541	1.4589048766763015	0
577.413672	1.4588374143517078	0
578.997803	1.458788426059461	0
580.581787	1.45873783773108	0
582.165723	1.4586851845708602	0
583.749609	1.4586300049595418	0
585.333398	1.458571839077614	0
586.91709	1.4585102257458027	0
588.500684	1.4584447039971777	0
590.084229	1.4584123968625997	0
591.667725	1.4584138529228292	0
593.251123	1.4584108841503158	0
594.834424	1.4584036123696518	0
596.417627	1.4583921593670874	0
598.000781	1.4583766463416743	0
599.583838	1.4583571952773482	0
601.166797	1.4583339278449572	0
602.749707	1.458306964771236	0
604.33252	1.4582764282812102	0
605.915234	1.458242439952225	0
607.497852	1.4582051212106404	0
609.08042	1.4581645922697835	0
610.662891	1.4581209755984261	0
612.245264	1.4580743925918318	0
613.827539	1.4580249645757348	0
615.409717	1.4579728127971596	0
616.991846	1.4579180567876535	0
618.573877	1.4578608193232316	0
620.155762	1.4578012234044684	0
621.737598	1.4577393864845238	0
623.319385	1.4576754294286223	0
624.901025	1.4576094772255246	0
626.482568	1.4575416488610815	0
628.064063	1.4574720630834985	0
629.64541	1.457400845184771	0
631.226709	1.4573281115135097	0
632.807861	1.4572539874243406	0
634.388965	1.4571785890375981	0
635.969971	1.4571020393969525	0
637.55083	1.457024461598105	0
639.131641	1.4569459714103534	0
640.712354	1.4568666918585416	0
642.29292	1.4567867459724355	0
643.873438	1.456708676979469	0
645.453857	1.4566799274868751	0
647.034131	1.4566504783224683	0
648.614355	1.4566200756725447	0
650.194434	1.456588469424964	0
651.774414	1.4565554068733686	0
653.354346	1.4565206351233064	0
654.934131	1.4564839046941025	0
656.513818	1.4564449629775005	0
658.093408	1.4564035584825328	0
659.6729	1.456359439862452	0
661.252246	1.456312357318901	0
662.831543	1.4562620567801747	0
664.410693	1.456208290294426	0
665.989746	1.4561508053416397	0
667.568701	1.456089351074936	0
669.147559	1.456087183119933	0
670.72627	1.4560916841865343	0
672.304883	1.4560920003944529	0
673.883447	1.4560881727248156	0
675.461816	1.4560802428681765	0
677.040137	1.456068251402387	0
678.618311	1.4560522401917348	0
680.196387	1.4560322500266365	0
681.774365	1.4560083219918707	0
683.352246	1.4559804971382768	0
684.92998	1.4559488175778346	0
686.507617	1.45591332351893	0
688.085107	1.4558740572791866	0
689.662549	1.455831057395532	0
691.239795	1.4557843690585603	0
692.816992	1.4557340290603602	0
694.394043	1.4556800814476658	0
695.970996	1.4556225656819708	0
697.547852	1.4555615226465433	0
699.124561	1.4554969953439956	0
700.701172	1.4554290228213882	0
702.277637	1.4553576481776547	0
703.854004	1.4552829102511766	0
705.430225	1.455204852309738	0
707.006396	1.45517447555755	0
708.582373	1.4552485058069284	0
710.158301	1.455319317343876	0
711.734033	1.4553869358781675	0
713.309717	1.4554514000600043	0
714.885254	1.455512737976334	0
716.460645	1.4555709820803882	0
718.035938	1.4556261664011287	0
719.611133	1.4556783230396337	0
721.186182	1.455727482632301	0
722.761084	1.4557736774974155	0
724.335937	1.4558169425714536	0
725.910596	1.4558573060491034	0
727.485156	1.4558948026671203	0
729.059619	1.4559294644947056	0
730.633936	1.455961322587976	0
732.208105	1.4559904091615432	0
733.782178	1.456016757283581	0
735.356152	1.4560403988698625	0
736.92998	1.456061365295786	0
738.503662	1.4560796887466005	0
740.077246	1.4560954018298187	0
741.650684	1.456108536099439	0
743.224023	1.4561191239694944	0
744.797217	1.4561271971343832	0
746.370264	1.4561327876870316	0
747.943213	1.4561359277777495	0
749.516016	1.45613664926921	0
751.088721	1.456134984127918	0
752.661279	1.4561309643371885	0
754.23374	1.4561246216843855	0
755.806055	1.4561159882648382	0
757.378223	1.4561050960752557	0
758.950293	1.4560919766480882	0
760.522217	1.4560766622384018	0
762.093994	1.4560591847973299	0
763.665674	1.4560395755933078	0
765.237256	1.4560178663499876	0
766.808643	1.4559940902997472	0
768.379932	1.455968277851102	0
769.951123	1.455940460676237	0
771.522119	1.4559106723351787	0
773.093018	1.4558789427942869	0
774.663818	1.45584530372515	0
776.234473	1.4558097878182206	0
777.80498	1.4557724269188737	0
779.375342	1.4557332527157811	0
780.945605	1.455692295720658	0
782.515723	1.45564958877734	0
784.085742	1.4556051622646802	0
785.655615	1.4555590491290842	0
787.225342	1.4555112810471966	0
788.794971	1.4554618881431771	0
790.364453	1.4554109035300935	0
791.933789	1.4553583588040953	0
793.503027	1.455304283897657	0
795.07207	1.4552487137477779	0
796.641064	1.455191674693303	0
798.209863	1.4551332035350675	0
799.778564	1.4550733282039379	0
801.347168	1.4550120800608068	0
802.915625	1.4549494925081181	0
804.483936	1.4548855970034573	0
806.0521	1.454820425067566	0
807.620166	1.454754006069446	0
809.188086	1.4546863734312463	0
810.755859	1.4546175586265944	0
812.323535	1.4545475908199341	0
813.891064	1.454476503586759	0
815.458496	1.454404325989623	0
817.025781	1.4543310916457992	0
818.59292	1.4542568318576445	0
820.159961	1.454181575635651	0
821.726855	1.454105356603782	0
823.293555	1.4540282083907528	0
824.860254	1.4539501526896783	0
826.426758	1.4538712303495835	0
827.993066	1.453791472751907	0
829.559375	1.4537109010215663	0
831.125488	1.4536295564344615	0
832.691504	1.453547465051554	0
834.257324	1.4534646632468229	0
835.823145	1.4533811717069	0
837.38877	1.4532970320260439	0
838.954199	1.4532122754023986	0
840.519531	1.4531269275947685	0
842.084863	1.4530410143096748	0
843.649902	1.4529545827158232	0
845.214941	1.452867647705728	0
846.779785	1.4527802511201762	0
848.344531	1.452692418582446	0
849.90918	1.4526041810205659	0
851.473633	1.4525155750251928	0
853.037988	1.4524711343579655	0
854.602246	1.4524560609369404	0
856.166406	1.452440598945758	0
857.730371	1.4524247160662145	0
859.294238	1.452408378053531	0
860.858008	1.4523915516109895	0
862.421582	1.4523742045799082	0
863.985156	1.4523563015267333	0
865.548535	1.4523378114399457	0
867.111816	1.4523186999969748	0
868.675	1.4522989339679895	0
870.237988	1.4522784814651841	0
871.800879	1.4522573080707775	0
873.363672	1.4522353806243764	0
874.926367	1.4522126659652501	0
876.488965	1.4521891309298574	0
878.051367	1.4521647439538776	0
879.613672	1.452139470453948	0
881.175879	1.4521132773408667	0
882.737988	1.45208613152261	0
884.3	1.4520579999013323	0
885.861914	1.4520288494270346	0
887.423633	1.451998648954346	0
888.985254	1.451967363669082	0
890.546777	1.451934960547865	0
892.108203	1.4519014065579519	0
893.669531	1.4518666687212851	0
895.230762	1.4518575042995616	0
896.791797	1.4518706661118468	0
898.352832	1.4518826124632684	0
899.913672	1.4518933543191757	0
901.474414	1.4519029049130938	0
903.035059	1.4519112766989568	0
904.595605	1.4519184821103677	0
906.156055	1.4519245335997941	0
907.716406	1.4519294435896102	0
909.27666	1.4519332245166192	0
910.836816	1.451935888803211	0
912.396777	1.451937448807737	0
913.956738	1.4519379171401883	0
915.516602	1.4519373060793568	0
917.07627	1.4519356281707756	0
918.635938	1.4519328956058177	0
920.195508	1.4519291208547838	0
921.754883	1.4519243166419484	0
923.314258	1.4519184947539716	0
924.873437	1.4519116683053999	0
926.432617	1.4519038488119704	0
927.991699	1.4518950490506004	0
929.550684	1.4518852813853669	0
931.109473	1.4518745588915818	0
932.668262	1.4518628925818315	0
934.226953	1.4518502954571608	0
935.785547	1.4518367798608545	0
937.344043	1.451822358148365	0
938.902539	1.451807041671764	0
940.46084	1.451790844685715	0
942.019141	1.451773777498082	0
943.577246	1.4517558545854639	0
945.135352	1.4517370860072976	0
946.693359	1.4517174852105106	0
948.25127	1.451697064474374	0
949.809082	1.451675836150633	0
951.366895	1.4516538111102901	0
952.924609	1.4516310029980746	0
954.482227	1.4516074240710546	0
956.039746	1.4515830866710475	0
957.597168	1.4515580030593667	0
959.15459	1.451532183891827	0
960.711914	1.4515056430090854	0
962.269141	1.451478392674505	0
963.826367	1.4514504434189337	0
965.383398	1.4514218109968606	0
966.940527	1.4513925022251777	0
968.497461	1.4513625348199304	0
970.054395	1.451331917289307	0
971.61123	1.4513006637773218	0
973.168066	1.4512687844712222	0
974.724707	1.4512362956329397	0
976.281445	1.4512032033576467	0
977.838086	1.4511695238996274	0
979.394629	1.451135269519797	0
980.951074	1.451100452453417	0
982.50752	1.4510650826640952	0
984.063965	1.4510291723224156	0
985.620313	1.4509927358180912	0
987.176563	1.4509557853955528	0
988.732812	1.4509183309217735	0
